TITLE = "Visualization of the surface solution"
VARIABLES = "x","y","DROPLET_LWC","X-Momentum","Y-Momentum","Energy","X-u_d","Y-u_d","Temperature"
ZONE NODES= 200, ELEMENTS= 200, DATAPACKING=POINT, ZONETYPE=FELINESEG
9.997500e-01	-3.632897e-05	3.707379e-01	5.965695e+01	8.245333e+00	2.580853e+05	4.827422e+01	6.672098e+00	2.881500e+02	
9.990000e-01	-1.452538e-04	3.703064e-01	6.296406e+01	8.942404e+00	2.578320e+05	5.100970e+01	7.244599e+00	2.881500e+02	
9.977600e-01	-3.251112e-04	3.699333e-01	6.538622e+01	9.388920e+00	2.576055e+05	5.302541e+01	7.614010e+00	2.881500e+02	
9.960200e-01	-5.769984e-04	3.696813e-01	6.732374e+01	9.664438e+00	2.574608e+05	5.463387e+01	7.842786e+00	2.881500e+02	
9.937800e-01	-9.004365e-04	3.694546e-01	6.883085e+01	9.889944e+00	2.573303e+05	5.589119e+01	8.030712e+00	2.881500e+02	
9.910500e-01	-1.293364e-03	3.692692e-01	7.012322e+01	1.005472e+01	2.572246e+05	5.696918e+01	8.168612e+00	2.881500e+02	
9.878400e-01	-1.753610e-03	3.691027e-01	7.123113e+01	1.018086e+01	2.571297e+05	5.789537e+01	8.274820e+00	2.881500e+02	
9.841300e-01	-2.283177e-03	3.689537e-01	7.221800e+01	1.027499e+01	2.570447e+05	5.872120e+01	8.354699e+00	2.881500e+02	
9.799500e-01	-2.876826e-03	3.688147e-01	7.309730e+01	1.034858e+01	2.569661e+05	5.945856e+01	8.417707e+00	2.881500e+02	
9.752800e-01	-3.536324e-03	3.686868e-01	7.390083e+01	1.040134e+01	2.568932e+05	6.013300e+01	8.463558e+00	2.881500e+02	
9.701500e-01	-4.256269e-03	3.685670e-01	7.464179e+01	1.043837e+01	2.568254e+05	6.075567e+01	8.496445e+00	2.881500e+02	
9.645400e-01	-5.038225e-03	3.684554e-01	7.532992e+01	1.046101e+01	2.567617e+05	6.133436e+01	8.517454e+00	2.881500e+02	
9.584700e-01	-5.878077e-03	3.683495e-01	7.597578e+01	1.047048e+01	2.567016e+05	6.187802e+01	8.527618e+00	2.881500e+02	
9.519400e-01	-6.774429e-03	3.682499e-01	7.658399e+01	1.046855e+01	2.566446e+05	6.239024e+01	8.528355e+00	2.881500e+02	
9.449600e-01	-7.724467e-03	3.681542e-01	7.715959e+01	1.045577e+01	2.565901e+05	6.287549e+01	8.520156e+00	2.881500e+02	
9.375400e-01	-8.725349e-03	3.680639e-01	7.770630e+01	1.043286e+01	2.565382e+05	6.333652e+01	8.503568e+00	2.881500e+02	
9.296900e-01	-9.774221e-03	3.679772e-01	7.822794e+01	1.040084e+01	2.564887e+05	6.377673e+01	8.479473e+00	2.881500e+02	
9.214000e-01	-1.087086e-02	3.678947e-01	7.872561e+01	1.036068e+01	2.564410e+05	6.419686e+01	8.448627e+00	2.881500e+02	
9.127000e-01	-1.200973e-02	3.678143e-01	7.920161e+01	1.031208e+01	2.563949e+05	6.459913e+01	8.410835e+00	2.881500e+02	
9.035800e-01	-1.319056e-02	3.677374e-01	7.966044e+01	1.025593e+01	2.563506e+05	6.498695e+01	8.366781e+00	2.881500e+02	
8.940600e-01	-1.440916e-02	3.676629e-01	8.010455e+01	1.019369e+01	2.563078e+05	6.536250e+01	8.317690e+00	2.881500e+02	
8.841500e-01	-1.566269e-02	3.675920e-01	8.053311e+01	1.012449e+01	2.562666e+05	6.572486e+01	8.262818e+00	2.881500e+02	
8.738500e-01	-1.694956e-02	3.675228e-01	8.094816e+01	1.005002e+01	2.562264e+05	6.607603e+01	8.203588e+00	2.881500e+02	
8.631800e-01	-1.826569e-02	3.674567e-01	8.134908e+01	9.968810e+00	2.561878e+05	6.641524e+01	8.138764e+00	2.881500e+02	
8.521600e-01	-1.960709e-02	3.673918e-01	8.173877e+01	9.882483e+00	2.561500e+05	6.674517e+01	8.069709e+00	2.881500e+02	
8.407700e-01	-2.097463e-02	3.673292e-01	8.211862e+01	9.790568e+00	2.561133e+05	6.706677e+01	7.996016e+00	2.881500e+02	
8.290500e-01	-2.236196e-02	3.672675e-01	8.248966e+01	9.693901e+00	2.560773e+05	6.738114e+01	7.918399e+00	2.881500e+02	
8.170100e-01	-2.376642e-02	3.672082e-01	8.285326e+01	9.592344e+00	2.560424e+05	6.768907e+01	7.836708e+00	2.881500e+02	
8.046400e-01	-2.518764e-02	3.671507e-01	8.321117e+01	9.487022e+00	2.560081e+05	6.799211e+01	7.751876e+00	2.881500e+02	
7.919700e-01	-2.662063e-02	3.670955e-01	8.356117e+01	9.376744e+00	2.559748e+05	6.828836e+01	7.662919e+00	2.881500e+02	
7.790100e-01	-2.806277e-02	3.670406e-01	8.390359e+01	9.261038e+00	2.559417e+05	6.857845e+01	7.569493e+00	2.881500e+02	
7.657800e-01	-2.951034e-02	3.669874e-01	8.423969e+01	9.139001e+00	2.559093e+05	6.886315e+01	7.470830e+00	2.881500e+02	
7.522800e-01	-3.096181e-02	3.669349e-01	8.457125e+01	9.012943e+00	2.558773e+05	6.914408e+01	7.368836e+00	2.881500e+02	
7.385200e-01	-3.241453e-02	3.668831e-01	8.489800e+01	8.880436e+00	2.558458e+05	6.942102e+01	7.261525e+00	2.881500e+02	
7.245300e-01	-3.386377e-02	3.668317e-01	8.522246e+01	8.744031e+00	2.558144e+05	6.969611e+01	7.150989e+00	2.881500e+02	
7.103200e-01	-3.530689e-02	3.667809e-01	8.554033e+01	8.600253e+00	2.557833e+05	6.996575e+01	7.034379e+00	2.881500e+02	
6.958900e-01	-3.674225e-02	3.667305e-01	8.585757e+01	8.450796e+00	2.557523e+05	7.023487e+01	6.913084e+00	2.881500e+02	
6.812700e-01	-3.816515e-02	3.666802e-01	8.616889e+01	8.293580e+00	2.557214e+05	7.049922e+01	6.785406e+00	2.881500e+02	
6.664700e-01	-3.957289e-02	3.666301e-01	8.648068e+01	8.129900e+00	2.556907e+05	7.076398e+01	6.652400e+00	2.881500e+02	
6.515000e-01	-4.096270e-02	3.665797e-01	8.678673e+01	7.957409e+00	2.556598e+05	7.102418e+01	6.512152e+00	2.881500e+02	
6.363800e-01	-4.233084e-02	3.665301e-01	8.709608e+01	7.777207e+00	2.556293e+05	7.128698e+01	6.365540e+00	2.881500e+02	
6.211300e-01	-4.367359e-02	3.664799e-01	8.739923e+01	7.587345e+00	2.555984e+05	7.154491e+01	6.210992e+00	2.881500e+02	
6.057600e-01	-4.498807e-02	3.664303e-01	8.770615e+01	7.388101e+00	2.555679e+05	7.180585e+01	6.048709e+00	2.881500e+02	
5.902800e-01	-4.627133e-02	3.663801e-01	8.800691e+01	7.177767e+00	2.555369e+05	7.206197e+01	5.877312e+00	2.881500e+02	
5.747100e-01	-4.751951e-02	3.663307e-01	8.831161e+01	6.956298e+00	2.555064e+05	7.232121e+01	5.696736e+00	2.881500e+02	
5.590600e-01	-4.872956e-02	3.662799e-01	8.860895e+01	6.722164e+00	2.554751e+05	7.257478e+01	5.505760e+00	2.881500e+02	
5.433600e-01	-4.989684e-02	3.662299e-01	8.891016e+01	6.474807e+00	2.554446e+05	7.283142e+01	5.303887e+00	2.881500e+02	
5.276100e-01	-5.101898e-02	3.661788e-01	8.920345e+01	6.213602e+00	2.554132e+05	7.308189e+01	5.090630e+00	2.881500e+02	
5.118400e-01	-5.209138e-02	3.661288e-01	8.949981e+01	5.936347e+00	2.553826e+05	7.333469e+01	4.864147e+00	2.881500e+02	
4.960500e-01	-5.311154e-02	3.660775e-01	8.978827e+01	5.643542e+00	2.553513e+05	7.358136e+01	4.624874e+00	2.881500e+02	
4.802700e-01	-5.407492e-02	3.660269e-01	9.007897e+01	5.332513e+00	2.553208e+05	7.382979e+01	4.370590e+00	2.881500e+02	
4.645100e-01	-5.497836e-02	3.659762e-01	9.036320e+01	5.004420e+00	2.552900e+05	7.407301e+01	4.102251e+00	2.881500e+02	
4.487800e-01	-5.581860e-02	3.659265e-01	9.064688e+01	4.656764e+00	2.552598e+05	7.431565e+01	3.817786e+00	2.881500e+02	
4.331100e-01	-5.659142e-02	3.658773e-01	9.092293e+01	4.289496e+00	2.552297e+05	7.455198e+01	3.517159e+00	2.881500e+02	
4.175000e-01	-5.729417e-02	3.658292e-01	9.119544e+01	3.900123e+00	2.552000e+05	7.478526e+01	3.198315e+00	2.881500e+02	
4.019700e-01	-5.792324e-02	3.657822e-01	9.146303e+01	3.488796e+00	2.551711e+05	7.501434e+01	2.861371e+00	2.881500e+02	
3.865400e-01	-5.847521e-02	3.657365e-01	9.172130e+01	3.054009e+00	2.551426e+05	7.523557e+01	2.505090e+00	2.881500e+02	
3.712300e-01	-5.894684e-02	3.656916e-01	9.197169e+01	2.594022e+00	2.551150e+05	7.545021e+01	2.128041e+00	2.881500e+02	
3.560400e-01	-5.933562e-02	3.656484e-01	9.220882e+01	2.108548e+00	2.550881e+05	7.565367e+01	1.729980e+00	2.881500e+02	
3.409900e-01	-5.963848e-02	3.656059e-01	9.243550e+01	1.595707e+00	2.550617e+05	7.584847e+01	1.309367e+00	2.881500e+02	
3.261100e-01	-5.985254e-02	3.655666e-01	9.264921e+01	1.054505e+00	2.550373e+05	7.603200e+01	8.653733e-01	2.881500e+02	
3.114000e-01	-5.997565e-02	3.655278e-01	9.284630e+01	4.849129e-01	2.550132e+05	7.620184e+01	3.979831e-01	2.881500e+02	
2.968700e-01	-6.000550e-02	3.654935e-01	9.302958e+01	-1.169725e-01	2.549918e+05	7.635943e+01	-9.601199e-02	2.881500e+02	
2.825500e-01	-5.994005e-02	3.654596e-01	9.319067e+01	-7.482970e-01	2.549706e+05	7.649874e+01	-6.142652e-01	2.881500e+02	
2.684500e-01	-5.977766e-02	3.654315e-01	9.333428e+01	-1.415401e+00	2.549529e+05	7.662252e+01	-1.161969e+00	2.881500e+02	
2.545700e-01	-5.951658e-02	3.654039e-01	9.344991e+01	-2.113891e+00	2.549354e+05	7.672325e+01	-1.735524e+00	2.881500e+02	
2.409400e-01	-5.915586e-02	3.653829e-01	9.354414e+01	-2.851623e+00	2.549220e+05	7.680503e+01	-2.341344e+00	2.881500e+02	
2.275700e-01	-5.869457e-02	3.653632e-01	9.360446e+01	-3.623035e+00	2.549093e+05	7.685869e+01	-2.974877e+00	2.881500e+02	
2.144700e-01	-5.813197e-02	3.653511e-01	9.363736e+01	-4.436755e+00	2.549011e+05	7.688826e+01	-3.643144e+00	2.881500e+02	
2.016600e-01	-5.746811e-02	3.653413e-01	9.362923e+01	-5.287710e+00	2.548940e+05	7.688365e+01	-4.342003e+00	2.881500e+02	
1.891400e-01	-5.670228e-02	3.653399e-01	9.358637e+01	-6.184892e+00	2.548921e+05	7.684874e+01	-5.078744e+00	2.881500e+02	
1.769300e-01	-5.583514e-02	3.653418e-01	9.349390e+01	-7.123589e+00	2.548919e+05	7.677241e+01	-5.849526e+00	2.881500e+02	
1.650400e-01	-5.486709e-02	3.653533e-01	9.335927e+01	-8.113243e+00	2.548976e+05	7.665944e+01	-6.661970e+00	2.881500e+02	
1.534900e-01	-5.379978e-02	3.653693e-01	9.316488e+01	-9.149356e+00	2.549057e+05	7.649647e+01	-7.512417e+00	2.881500e+02	
1.422900e-01	-5.263443e-02	3.653966e-01	9.291978e+01	-1.024228e+01	2.549207e+05	7.628952e+01	-8.409172e+00	2.881500e+02	
1.314400e-01	-5.137134e-02	3.654310e-01	9.259818e+01	-1.138785e+01	2.549396e+05	7.601833e+01	-9.348839e+00	2.881500e+02	
1.209500e-01	-5.001187e-02	3.654770e-01	9.220782e+01	-1.259875e+01	2.549655e+05	7.568832e+01	-1.034162e+01	2.881500e+02	
1.108500e-01	-4.856067e-02	3.655333e-01	9.172537e+01	-1.387068e+01	2.549972e+05	7.528072e+01	-1.138393e+01	2.881500e+02	
1.011300e-01	-4.701715e-02	3.656031e-01	9.114740e+01	-1.521564e+01	2.550369e+05	7.479208e+01	-1.248537e+01	2.881500e+02	
9.181000e-02	-4.538527e-02	3.656870e-01	9.045589e+01	-1.663438e+01	2.550848e+05	7.420764e+01	-1.364641e+01	2.881500e+02	
8.290000e-02	-4.366791e-02	3.657877e-01	8.962896e+01	-1.813457e+01	2.551425e+05	7.350900e+01	-1.487303e+01	2.881500e+02	
7.440000e-02	-4.186608e-02	3.659072e-01	8.864729e+01	-1.972231e+01	2.552112e+05	7.268015e+01	-1.616993e+01	2.881500e+02	
6.633000e-02	-3.998514e-02	3.660487e-01	8.747755e+01	-2.140247e+01	2.552926e+05	7.169337e+01	-1.754068e+01	2.881500e+02	
5.869000e-02	-3.802636e-02	3.662166e-01	8.608600e+01	-2.318237e+01	2.553894e+05	7.052056e+01	-1.899070e+01	2.881500e+02	
5.149000e-02	-3.599338e-02	3.664146e-01	8.443138e+01	-2.506297e+01	2.555035e+05	6.912775e+01	-2.052018e+01	2.881500e+02	
4.474000e-02	-3.389028e-02	3.666508e-01	8.245517e+01	-2.704517e+01	2.556402e+05	6.746625e+01	-2.212883e+01	2.881500e+02	
3.844000e-02	-3.171811e-02	3.669315e-01	8.007499e+01	-2.911932e+01	2.558026e+05	6.546862e+01	-2.380770e+01	2.881500e+02	
3.260000e-02	-2.948109e-02	3.672655e-01	7.720408e+01	-3.126925e+01	2.559961e+05	6.306399e+01	-2.554222e+01	2.881500e+02	
2.723000e-02	-2.718420e-02	3.676679e-01	7.372561e+01	-3.344621e+01	2.562297e+05	6.015670e+01	-2.729056e+01	2.881500e+02	
2.232000e-02	-2.482329e-02	3.681505e-01	6.947710e+01	-3.557066e+01	2.565102e+05	5.661578e+01	-2.898596e+01	2.881500e+02	
1.790000e-02	-2.241365e-02	3.687301e-01	6.428510e+01	-3.750854e+01	2.568474e+05	5.230256e+01	-3.051707e+01	2.881500e+02	
1.395000e-02	-1.994492e-02	3.694290e-01	5.795255e+01	-3.900926e+01	2.572552e+05	4.706118e+01	-3.167802e+01	2.881500e+02	
1.049000e-02	-1.742916e-02	3.702558e-01	5.026896e+01	-3.969610e+01	2.577384e+05	4.073046e+01	-3.216379e+01	2.881500e+02	
7.520000e-03	-1.486756e-02	3.712175e-01	4.116845e+01	-3.897372e+01	2.583028e+05	3.327035e+01	-3.149668e+01	2.881500e+02	
5.040000e-03	-1.226032e-02	3.722844e-01	3.073448e+01	-3.598570e+01	2.589312e+05	2.476693e+01	-2.899855e+01	2.881500e+02	
3.050000e-03	-9.605565e-03	3.733928e-01	1.965500e+01	-2.975810e+01	2.595898e+05	1.579168e+01	-2.390895e+01	2.881500e+02	
1.560000e-03	-6.917518e-03	3.742666e-01	9.337735e+00	-1.956723e+01	2.601054e+05	7.484826e+00	-1.568445e+01	2.881500e+02	
5.600000e-04	-4.173160e-03	3.749606e-01	1.684964e+00	-5.507706e+00	2.605383e+05	1.348113e+00	-4.406629e+00	2.881500e+02	
6.000000e-05	-1.375330e-03	3.747407e-01	-1.120134e+00	1.065275e+01	2.603958e+05	-8.967274e-01	8.528099e+00	2.881500e+02	
0.000000e+00	0.000000e+00	3.738735e-01	6.422344e-01	2.259671e+01	2.598384e+05	5.153356e-01	1.813184e+01	2.881500e+02	
6.000000e-05	1.375330e-03	3.736503e-01	4.642400e+00	3.397288e+01	2.597582e+05	3.727335e+00	2.727648e+01	2.881500e+02	
5.600000e-04	4.173160e-03	3.726276e-01	1.326633e+01	4.869764e+01	2.592048e+05	1.068063e+01	3.920614e+01	2.881500e+02	
1.560000e-03	6.917518e-03	3.700987e-01	2.735404e+01	5.913538e+01	2.576456e+05	2.217304e+01	4.793483e+01	2.881500e+02	
3.050000e-03	9.605565e-03	3.683772e-01	4.166908e+01	6.396855e+01	2.566357e+05	3.393458e+01	5.209488e+01	2.881500e+02	
5.040000e-03	1.226032e-02	3.667812e-01	5.489480e+01	6.469668e+01	2.556897e+05	4.489990e+01	5.291712e+01	2.881500e+02	
7.520000e-03	1.486756e-02	3.655698e-01	6.595747e+01	6.268948e+01	2.549774e+05	5.412712e+01	5.144529e+01	2.881500e+02	
1.049000e-02	1.742916e-02	3.646817e-01	7.477350e+01	5.917996e+01	2.544581e+05	6.151130e+01	4.868351e+01	2.881500e+02	
1.395000e-02	1.994492e-02	3.640506e-01	8.163179e+01	5.502915e+01	2.540919e+05	6.726959e+01	4.534739e+01	2.881500e+02	
1.790000e-02	2.241365e-02	3.636090e-01	8.687623e+01	5.073974e+01	2.538370e+05	7.167828e+01	4.186343e+01	2.881500e+02	
2.232000e-02	2.482329e-02	3.633066e-01	9.088814e+01	4.655876e+01	2.536640e+05	7.505079e+01	3.844585e+01	2.881500e+02	
2.723000e-02	2.718420e-02	3.631053e-01	9.393757e+01	4.263333e+01	2.535499e+05	7.761185e+01	3.522395e+01	2.881500e+02	
3.260000e-02	2.948109e-02	3.629729e-01	9.626585e+01	3.899722e+01	2.534757e+05	7.956448e+01	3.223151e+01	2.881500e+02	
3.844000e-02	3.171811e-02	3.628941e-01	9.804715e+01	3.565871e+01	2.534327e+05	8.105434e+01	2.947861e+01	2.881500e+02	
4.474000e-02	3.389028e-02	3.628516e-01	9.940932e+01	3.260800e+01	2.534104e+05	8.219007e+01	2.695979e+01	2.881500e+02	
5.149000e-02	3.599338e-02	3.628348e-01	1.004403e+02	2.981549e+01	2.534026e+05	8.304632e+01	2.465212e+01	2.881500e+02	
5.869000e-02	3.802636e-02	3.628402e-01	1.012218e+02	2.725664e+01	2.534078e+05	8.369120e+01	2.253606e+01	2.881500e+02	
6.633000e-02	3.998514e-02	3.628600e-01	1.018105e+02	2.490781e+01	2.534212e+05	8.417341e+01	2.059291e+01	2.881500e+02	
7.440000e-02	4.186608e-02	3.628913e-01	1.022392e+02	2.274269e+01	2.534411e+05	8.452050e+01	1.880125e+01	2.881500e+02	
8.290000e-02	4.366791e-02	3.629327e-01	1.025415e+02	2.074500e+01	2.534670e+05	8.476080e+01	1.714781e+01	2.881500e+02	
9.181000e-02	4.538527e-02	3.629795e-01	1.027348e+02	1.888883e+01	2.534955e+05	8.490957e+01	1.561149e+01	2.881500e+02	
1.011300e-01	4.701715e-02	3.630335e-01	1.028411e+02	1.716472e+01	2.535283e+05	8.498479e+01	1.418441e+01	2.881500e+02	
1.108500e-01	4.856067e-02	3.630907e-01	1.028693e+02	1.555551e+01	2.535625e+05	8.499467e+01	1.285258e+01	2.881500e+02	
1.209500e-01	5.001187e-02	3.631527e-01	1.028371e+02	1.404831e+01	2.535997e+05	8.495357e+01	1.160529e+01	2.881500e+02	
1.314400e-01	5.137134e-02	3.632191e-01	1.027575e+02	1.263736e+01	2.536395e+05	8.487235e+01	1.043780e+01	2.881500e+02	
1.422900e-01	5.263443e-02	3.632871e-01	1.026303e+02	1.130917e+01	2.536801e+05	8.475142e+01	9.339031e+00	2.881500e+02	
1.534900e-01	5.379978e-02	3.633592e-01	1.024681e+02	1.006285e+01	2.537233e+05	8.460066e+01	8.308184e+00	2.881500e+02	
1.650400e-01	5.486709e-02	3.634317e-01	1.022605e+02	8.884231e+00	2.537663e+05	8.441240e+01	7.333618e+00	2.881500e+02	
1.769300e-01	5.583514e-02	3.635089e-01	1.020312e+02	7.774687e+00	2.538124e+05	8.420529e+01	6.416365e+00	2.881500e+02	
1.891400e-01	5.670228e-02	3.635852e-01	1.017678e+02	6.722918e+00	2.538578e+05	8.397024e+01	5.547188e+00	2.881500e+02	
2.016600e-01	5.746811e-02	3.636665e-01	1.014903e+02	5.732106e+00	2.539065e+05	8.372259e+01	4.728596e+00	2.881500e+02	
2.144700e-01	5.813197e-02	3.637459e-01	1.011844e+02	4.791039e+00	2.539537e+05	8.345200e+01	3.951417e+00	2.881500e+02	
2.275700e-01	5.869457e-02	3.638301e-01	1.008657e+02	3.904313e+00	2.540042e+05	8.316990e+01	3.219343e+00	2.881500e+02	
2.409400e-01	5.915586e-02	3.639119e-01	1.005223e+02	3.061332e+00	2.540528e+05	8.286811e+01	2.523686e+00	2.881500e+02	
2.545700e-01	5.951658e-02	3.639977e-01	1.001675e+02	2.266432e+00	2.541041e+05	8.255619e+01	1.867951e+00	2.881500e+02	
2.684500e-01	5.977766e-02	3.640812e-01	9.979375e+01	1.511138e+00	2.541539e+05	8.222925e+01	1.245166e+00	2.881500e+02	
2.825500e-01	5.994005e-02	3.641678e-01	9.941185e+01	7.985871e-01	2.542055e+05	8.189508e+01	6.578728e-01	2.881500e+02	
2.968700e-01	6.000550e-02	3.642527e-01	9.901608e+01	1.232246e-01	2.542561e+05	8.155004e+01	1.014883e-01	2.881500e+02	
3.114000e-01	5.997565e-02	3.643395e-01	9.861229e+01	-5.150293e-01	2.543079e+05	8.119813e+01	-4.240791e-01	2.881500e+02	
3.261100e-01	5.985254e-02	3.644249e-01	9.820109e+01	-1.118107e+00	2.543591e+05	8.084060e+01	-9.204424e-01	2.881500e+02	
3.409900e-01	5.963848e-02	3.645112e-01	9.778130e+01	-1.688542e+00	2.544104e+05	8.047596e+01	-1.389703e+00	2.881500e+02	
3.560400e-01	5.933562e-02	3.645977e-01	9.735823e+01	-2.226048e+00	2.544619e+05	8.010875e+01	-1.831647e+00	2.881500e+02	
3.712300e-01	5.894684e-02	3.646834e-01	9.692813e+01	-2.734395e+00	2.545127e+05	7.973612e+01	-2.249399e+00	2.881500e+02	
3.865400e-01	5.847521e-02	3.647691e-01	9.649877e+01	-3.212788e+00	2.545639e+05	7.936426e+01	-2.642319e+00	2.881500e+02	
4.019700e-01	5.792324e-02	3.648538e-01	9.606513e+01	-3.665242e+00	2.546142e+05	7.898929e+01	-3.013735e+00	2.881500e+02	
4.175000e-01	5.729417e-02	3.649392e-01	9.563369e+01	-4.090076e+00	2.546652e+05	7.861614e+01	-3.362266e+00	2.881500e+02	
4.331100e-01	5.659142e-02	3.650229e-01	9.520048e+01	-4.492117e+00	2.547149e+05	7.824206e+01	-3.691919e+00	2.881500e+02	
4.487800e-01	5.581860e-02	3.651071e-01	9.476999e+01	-4.868682e+00	2.547651e+05	7.787029e+01	-4.000482e+00	2.881500e+02	
4.645100e-01	5.497836e-02	3.651891e-01	9.433737e+01	-5.224842e+00	2.548138e+05	7.749741e+01	-4.292167e+00	2.881500e+02	
4.802700e-01	5.407492e-02	3.652713e-01	9.390730e+01	-5.559508e+00	2.548628e+05	7.712676e+01	-4.566065e+00	2.881500e+02	
4.960500e-01	5.311154e-02	3.653519e-01	9.347961e+01	-5.876047e+00	2.549108e+05	7.675855e+01	-4.824976e+00	2.881500e+02	
5.118400e-01	5.209138e-02	3.654315e-01	9.305311e+01	-6.173176e+00	2.549584e+05	7.639170e+01	-5.067852e+00	2.881500e+02	
5.276100e-01	5.101898e-02	3.655105e-01	9.262933e+01	-6.453028e+00	2.550054e+05	7.602735e+01	-5.296450e+00	2.881500e+02	
5.433600e-01	4.989684e-02	3.655881e-01	9.220492e+01	-6.715930e+00	2.550516e+05	7.566295e+01	-5.511063e+00	2.881500e+02	
5.590600e-01	4.872956e-02	3.656651e-01	9.178163e+01	-6.962202e+00	2.550974e+05	7.529975e+01	-5.711950e+00	2.881500e+02	
5.747100e-01	4.751951e-02	3.657401e-01	9.135757e+01	-7.196947e+00	2.551421e+05	7.493647e+01	-5.903329e+00	2.881500e+02	
5.902800e-01	4.627133e-02	3.658152e-01	9.093995e+01	-7.416566e+00	2.551870e+05	7.457860e+01	-6.082223e+00	2.881500e+02	
6.057600e-01	4.498807e-02	3.658881e-01	9.051869e+01	-7.625980e+00	2.552304e+05	7.421834e+01	-6.252715e+00	2.881500e+02	
6.211300e-01	4.367359e-02	3.659619e-01	9.010641e+01	-7.822684e+00	2.552745e+05	7.386540e+01	-6.412704e+00	2.881500e+02	
6.363800e-01	4.233084e-02	3.660336e-01	8.968936e+01	-8.009527e+00	2.553171e+05	7.350912e+01	-6.564583e+00	2.881500e+02	
6.515000e-01	4.096270e-02	3.661055e-01	8.927941e+01	-8.186353e+00	2.553600e+05	7.315875e+01	-6.708192e+00	2.881500e+02	
6.664700e-01	3.957289e-02	3.661753e-01	8.886245e+01	-8.354087e+00	2.554015e+05	7.280321e+01	-6.844335e+00	2.881500e+02	
6.812700e-01	3.816515e-02	3.662459e-01	8.845181e+01	-8.513597e+00	2.554437e+05	7.245279e+01	-6.973672e+00	2.881500e+02	
6.958900e-01	3.674225e-02	3.663153e-01	8.803450e+01	-8.665242e+00	2.554848e+05	7.209732e+01	-7.096544e+00	2.881500e+02	
7.103200e-01	3.530689e-02	3.663856e-01	8.762359e+01	-8.810108e+00	2.555266e+05	7.174703e+01	-7.213800e+00	2.881500e+02	
7.245300e-01	3.386377e-02	3.664547e-01	8.720590e+01	-8.947789e+00	2.555674e+05	7.139155e+01	-7.325152e+00	2.881500e+02	
